energy,data,uncert
12,0.09,0.09
12.1,0.11,0.11
12.2,0.14,0.14
12.3,0.17,0.17
12.4,0.19,0.19
12.5,0.22,0.22
12.6,0.24,0.24
12.7,0.26,0.26
12.8,0.28,0.28
12.9,0.3,0.3
13,0.32,0.05
13.1,0.34,0.06
13.2,0.36,0.06
13.3,0.38,0.06
13.4,0.41,0.07
13.5,0.46,0.08
13.6,0.53,0.09
13.7,0.62,0.1
13.8,0.73,0.12
13.9,0.88,0.15
14,1.06,0.13
14.1,1.27,0.16
14.2,1.53,0.19
14.3,1.84,0.23
14.4,2.21,0.28
14.5,2.62,0.33
14.6,3.11,0.39
14.7,3.65,0.46
14.8,4.27,0.54
14.9,4.97,0.63
15,5.75,0.34
15.1,6.61,0.39
15.2,7.56,0.45
15.3,8.6,0.51
15.4,9.73,0.58
15.5,10.96,0.65
15.6,12.28,0.73
15.7,13.69,0.81
15.8,15.21,0.9
15.9,16.82,1
16,18.54,1.14
16.1,20.36,1.25
16.2,22.28,1.36
16.3,24.29,1.49
16.4,26.39,1.62
16.5,28.57,1.75
16.6,30.84,1.89
16.7,33.17,2.03
16.8,35.58,2.18
16.9,38.05,2.33
17,40.59,2.55
17.1,43.17,2.71
17.2,45.81,2.88
17.3,48.48,3.04
17.4,51.19,3.21
17.5,53.93,3.39
17.6,56.69,3.56
17.7,59.46,3.73
17.8,62.24,3.91
17.9,65.02,4.08
18,67.79,3.97
18.1,70.54,4.13
18.2,73.28,4.29
18.3,76,4.45
18.4,78.69,4.6
18.5,81.35,4.76
18.6,83.98,4.91
18.7,86.57,5.07
18.8,89.13,5.21
18.9,91.64,5.36
19,94.1,4.79
19.1,96.52,4.91
19.2,98.88,5.03
19.3,101.19,5.15
19.4,103.45,5.27
19.5,105.66,5.38
19.6,107.82,5.49
19.7,109.92,5.6
19.8,111.97,5.7
19.9,113.96,5.8
20,115.91,5.24
20.1,117.79,5.33
20.2,119.63,5.41
20.3,121.41,5.49
20.4,123.14,5.57
20.5,124.82,5.64
20.6,126.45,5.72
20.7,128.03,5.79
20.8,129.56,5.86
20.9,131.05,5.93
21,132.49,5.69
21.1,133.88,5.75
21.2,135.23,5.81
21.3,136.54,5.86
21.4,137.81,5.92
21.5,139.04,5.97
21.6,140.23,6.02
21.7,141.38,6.07
21.8,142.49,6.12
21.9,143.57,6.16
22,144.61,6.17
22.1,145.62,6.22
22.2,146.6,6.26
22.3,147.55,6.3
22.4,148.47,6.34
22.5,149.36,6.38
22.6,150.22,6.41
22.7,151.06,6.45
22.8,151.88,6.48
22.9,152.67,6.52
23,153.44,6.57
23.1,154.19,6.6
23.2,154.92,6.63
23.3,155.63,6.67
23.4,156.33,6.69
23.5,157.01,6.72
23.6,157.69,6.75
23.7,158.35,6.78
23.8,159,6.81
23.9,159.65,6.84
24,160.29,6.84
24.1,160.93,6.86
24.2,161.57,6.89
24.3,162.22,6.92
24.4,162.88,6.95
24.5,163.54,6.98
24.6,164.23,7
24.7,164.94,7.03
24.8,165.68,7.07
24.9,166.44,7.1
25,167.24,7.05
25.1,168.08,7.09
25.2,168.95,7.12
25.3,169.86,7.16
25.4,170.8,7.2
25.5,171.76,7.24
25.6,172.76,7.28
25.7,173.77,7.32
25.8,174.8,7.37
25.9,175.85,7.41
26,176.92,7.38
26.1,177.99,7.42
26.2,179.05,7.47
26.3,180.08,7.51
26.4,181.06,7.55
26.5,181.97,7.59
26.6,182.77,7.62
26.7,183.46,7.65
26.8,184.02,7.67
26.9,184.41,7.69
27,184.61,7.73
27.1,184.63,7.73
27.2,184.45,7.72
27.3,184.09,7.71
27.4,183.57,7.69
27.5,182.89,7.66
27.6,182.08,7.63
27.7,181.14,7.59
27.8,180.09,7.54
27.9,178.94,7.49
28,177.7,7.49
28.1,176.39,7.43
28.2,175.01,7.37
28.3,173.58,7.31
28.4,172.11,7.25
28.5,170.6,7.19
28.6,169.08,7.12
28.7,167.54,7.06
28.8,166,6.99
28.9,164.47,6.93
29,162.96,6.84
29.1,161.48,6.78
29.2,160.03,6.72
29.3,158.61,6.66
29.4,157.22,6.6
29.5,155.85,6.55
29.6,154.5,6.49
29.7,153.18,6.43
29.8,151.87,6.38
29.9,150.59,6.32
30,149.32,6.19
30.1,148.08,6.14
30.2,146.84,6.09
30.3,145.63,6.04
30.4,144.43,5.99
30.5,143.24,5.94
30.6,142.07,5.89
30.7,140.92,5.84
30.8,139.77,5.79
30.9,138.64,5.75
31,137.53,5.75
31.1,136.42,5.71
31.2,135.33,5.66
31.3,134.25,5.61
31.4,133.19,5.57
31.5,132.13,5.53
31.6,131.09,5.48
31.7,130.06,5.44
31.8,129.04,5.4
31.9,128.03,5.35
32,127.04,5.37
32.1,126.06,5.33
32.2,125.09,5.29
32.3,124.13,5.25
32.4,123.19,5.21
32.5,122.25,5.17
32.6,121.33,5.13
32.7,120.42,5.09
32.8,119.53,5.05
32.9,118.64,5.02
33,117.77,4.98
33.1,116.91,4.94
33.2,116.07,4.91
33.3,115.23,4.87
33.4,114.41,4.84
33.5,113.6,4.8
33.6,112.81,4.77
33.7,112.02,4.74
33.8,111.25,4.7
33.9,110.5,4.67
34,109.75,4.64
34.1,109.02,4.61
34.2,108.3,4.58
34.3,107.59,4.55
34.4,106.9,4.52
34.5,106.22,4.49
34.6,105.55,4.47
34.7,104.89,4.44
34.8,104.24,4.41
34.9,103.61,4.38
35,102.99,4.36
35.1,102.38,4.33
35.2,101.78,4.31
35.3,101.2,4.28
35.4,100.62,4.26
35.5,100.06,4.23
35.6,99.51,4.21
35.7,98.97,4.19
35.8,98.44,4.17
35.9,97.92,4.14
36,97.41,4.12
36.1,96.91,4.09
36.2,96.42,4.07
36.3,95.95,4.05
36.4,95.48,4.03
36.5,95.02,4.01
36.6,94.58,4
36.7,94.14,3.98
36.8,93.71,3.96
36.9,93.3,3.94
37,92.89,3.92
37.1,92.49,3.91
37.2,92.1,3.89
37.3,91.71,3.87
37.4,91.34,3.86
37.5,90.97,3.84
37.6,90.61,3.83
37.7,90.26,3.81
37.8,89.92,3.8
37.9,89.59,3.78
38,89.26,3.79
38.1,88.94,3.78
38.2,88.63,3.77
38.3,88.32,3.75
38.4,88.02,3.74
38.5,87.73,3.73
38.6,87.44,3.72
38.7,87.17,3.71
38.8,86.89,3.69
38.9,86.62,3.68
39,86.36,3.67
39.1,86.11,3.66
39.2,85.86,3.65
39.3,85.61,3.64
39.4,85.37,3.63
39.5,85.14,3.62
39.6,84.91,3.61
39.7,84.69,3.6
39.8,84.47,3.59
39.9,84.26,3.58
40,84.05,3.61
40.1,83.84,3.6
40.2,83.64,3.59
40.3,83.44,3.58
40.4,83.25,3.57
40.5,83.06,3.57
40.6,82.88,3.56
40.7,82.7,3.55
40.8,82.52,3.54
40.9,82.35,3.54
41,82.18,3.53
41.1,82.01,3.52
41.2,81.85,3.51
41.3,81.69,3.51
41.4,81.54,3.5
41.5,81.38,3.49
41.6,81.23,3.49
41.7,81.08,3.48
41.8,80.94,3.48
41.9,80.8,3.47
42,80.66,3.48
42.1,80.52,3.48
42.2,80.39,3.47
42.3,80.26,3.47
42.4,80.13,3.46
42.5,80,3.46
42.6,79.88,3.45
42.7,79.76,3.44
42.8,79.63,3.44
42.9,79.52,3.43
43,79.4,3.43
43.1,79.29,3.42
43.2,79.17,3.42
43.3,79.06,3.42
43.4,78.96,3.41
43.5,78.85,3.41
43.6,78.74,3.4
43.7,78.64,3.4
43.8,78.54,3.39
43.9,78.44,3.39
44,78.34,3.38
44.1,78.24,3.38
44.2,78.15,3.38
44.3,78.05,3.37
44.4,77.96,3.37
44.5,77.87,3.36
44.6,77.78,3.36
44.7,77.69,3.36
44.8,77.6,3.35
44.9,77.52,3.35
45,77.43,3.34
45.1,77.35,3.34
45.2,77.26,3.34
45.3,77.18,3.33
45.4,77.1,3.33
45.5,77.02,3.33
45.6,76.94,3.32
45.7,76.86,3.32
45.8,76.78,3.32
45.9,76.71,3.31
46,76.63,3.3
46.1,76.56,3.3
46.2,76.48,3.3
46.3,76.41,3.29
46.4,76.34,3.29
46.5,76.26,3.29
46.6,76.19,3.29
46.7,76.12,3.28
46.8,76.05,3.28
46.9,75.98,3.28
47,75.92,3.27
47.1,75.85,3.27
47.2,75.78,3.27
47.3,75.71,3.26
47.4,75.65,3.26
47.5,75.58,3.26
47.6,75.52,3.26
47.7,75.45,3.25
47.8,75.39,3.25
47.9,75.33,3.25
48,75.26,3.23
48.1,75.2,3.23
48.2,75.14,3.23
48.3,75.08,3.23
48.4,75.02,3.22
48.5,74.96,3.22
48.6,74.9,3.22
48.7,74.84,3.22
48.8,74.78,3.21
48.9,74.72,3.21
49,74.66,3.2
49.1,74.6,3.2
49.2,74.55,3.2
49.3,74.49,3.2
49.4,74.43,3.19
49.5,74.37,3.19
49.6,74.32,3.19
49.7,74.26,3.19
49.8,74.21,3.18
49.9,74.15,3.18
50,74.09,3.18
50.1,74.04,3.17
50.2,73.98,3.17
50.3,73.93,3.17
50.4,73.87,3.17
50.5,73.82,3.16
50.6,73.77,3.16
50.7,73.71,3.16
50.8,73.66,3.16
50.9,73.61,3.15
51,73.55,3.15
51.1,73.5,3.15
51.2,73.45,3.15
51.3,73.4,3.15
51.4,73.34,3.14
51.5,73.29,3.14
51.6,73.24,3.14
51.7,73.19,3.14
51.8,73.14,3.13
51.9,73.09,3.13
52,73.04,3.13
52.1,72.98,3.13
52.2,72.93,3.13
52.3,72.88,3.12
52.4,72.83,3.12
52.5,72.78,3.12
52.6,72.73,3.12
52.7,72.68,3.12
52.8,72.63,3.11
52.9,72.59,3.11
53,72.54,3.11
53.1,72.49,3.11
53.2,72.44,3.1
53.3,72.39,3.1
53.4,72.34,3.1
53.5,72.29,3.1
53.6,72.24,3.1
53.7,72.2,3.09
53.8,72.15,3.09
53.9,72.1,3.09
54,72.05,3.09
54.1,72,3.09
54.2,71.96,3.08
54.3,71.91,3.08
54.4,71.86,3.08
54.5,71.81,3.08
54.6,71.77,3.08
54.7,71.72,3.07
54.8,71.67,3.07
54.9,71.63,3.07
55,71.58,3.07
55.1,71.53,3.06
55.2,71.49,3.06
55.3,71.44,3.06
55.4,71.39,3.06
55.5,71.35,3.06
55.6,71.3,3.05
55.7,71.26,3.05
55.8,71.21,3.05
55.9,71.16,3.05
56,71.12,3.05
56.1,71.07,3.04
56.2,71.03,3.04
56.3,70.98,3.04
56.4,70.93,3.04
56.5,70.89,3.04
56.6,70.84,3.03
56.7,70.8,3.03
56.8,70.75,3.03
56.9,70.71,3.03
57,70.66,3.03
57.1,70.62,3.02
57.2,70.57,3.02
57.3,70.53,3.02
57.4,70.48,3.02
57.5,70.44,3.02
57.6,70.39,3.01
57.7,70.35,3.01
57.8,70.3,3.01
57.9,70.26,3.01
58,70.22,3.01
58.1,70.17,3.01
58.2,70.13,3
58.3,70.08,3
58.4,70.04,3
58.5,69.99,3
58.6,69.95,3
58.7,69.91,2.99
58.8,69.86,2.99
58.9,69.82,2.99
59,69.78,2.99
59.1,69.73,2.99
59.2,69.69,2.98
59.3,69.65,2.98
59.4,69.6,2.98
59.5,69.56,2.98
59.6,69.52,2.98
59.7,69.47,2.98
59.8,69.43,2.97
59.9,69.39,2.97
60,69.34,2.98
60.1,69.3,2.98
60.2,69.26,2.98
60.3,69.21,2.97
60.4,69.17,2.97
60.5,69.13,2.97
60.6,69.09,2.97
60.7,69.04,2.97
60.8,69,2.97
60.9,68.96,2.96
61,68.92,2.96
61.1,68.87,2.96
61.2,68.83,2.96
61.3,68.79,2.96
61.4,68.75,2.95
61.5,68.71,2.95
61.6,68.66,2.95
61.7,68.62,2.95
61.8,68.58,2.95
61.9,68.54,2.95
62,68.5,2.94
62.1,68.46,2.94
62.2,68.41,2.94
62.3,68.37,2.94
62.4,68.33,2.94
62.5,68.29,2.93
62.6,68.25,2.93
62.7,68.21,2.93
62.8,68.17,2.93
62.9,68.12,2.93
63,68.08,2.93
63.1,68.04,2.92
63.2,68,2.92
63.3,67.96,2.92
63.4,67.92,2.92
63.5,67.88,2.92
63.6,67.84,2.92
63.7,67.8,2.91
63.8,67.76,2.91
63.9,67.72,2.91
64,67.68,2.91
64.1,67.64,2.91
64.2,67.6,2.9
64.3,67.56,2.9
64.4,67.51,2.9
64.5,67.47,2.9
64.6,67.43,2.9
64.7,67.39,2.9
64.8,67.35,2.89
64.9,67.31,2.89
65,67.28,2.91
65.1,67.24,2.91
65.2,67.2,2.91
65.3,67.16,2.91
65.4,67.12,2.91
65.5,67.08,2.9
65.6,67.04,2.9
65.7,67,2.9
65.8,66.96,2.9
65.9,66.92,2.9
66,66.88,2.9
66.1,66.84,2.89
66.2,66.8,2.89
66.3,66.76,2.89
66.4,66.72,2.89
66.5,66.68,2.89
66.6,66.65,2.89
66.7,66.61,2.88
66.8,66.57,2.88
66.9,66.53,2.88
67,66.49,2.88
67.1,66.45,2.88
67.2,66.41,2.88
67.3,66.38,2.87
67.4,66.34,2.87
67.5,66.3,2.87
67.6,66.26,2.87
67.7,66.22,2.87
67.8,66.18,2.87
67.9,66.15,2.86
68,66.11,2.86
68.1,66.07,2.86
68.2,66.03,2.86
68.3,65.99,2.86
68.4,65.96,2.86
68.5,65.92,2.85
68.6,65.88,2.85
68.7,65.84,2.85
68.8,65.81,2.85
68.9,65.77,2.85
69,65.73,2.85
69.1,65.69,2.85
69.2,65.66,2.84
69.3,65.62,2.84
69.4,65.58,2.84
69.5,65.55,2.84
69.6,65.51,2.84
69.7,65.47,2.84
69.8,65.43,2.83
69.9,65.4,2.83
70,65.36,2.86
70.1,65.32,2.85
70.2,65.29,2.85
70.3,65.25,2.85
70.4,65.21,2.85
70.5,65.18,2.85
70.6,65.14,2.85
70.7,65.1,2.85
70.8,65.07,2.84
70.9,65.03,2.84
71,65,2.84
71.1,64.96,2.84
71.2,64.92,2.84
71.3,64.89,2.84
71.4,64.85,2.83
71.5,64.82,2.83
71.6,64.78,2.83
71.7,64.74,2.83
71.8,64.71,2.83
71.9,64.67,2.83
72,64.64,2.82
72.1,64.6,2.82
72.2,64.57,2.82
72.3,64.53,2.82
72.4,64.49,2.82
72.5,64.46,2.82
72.6,64.42,2.82
72.7,64.39,2.81
72.8,64.35,2.81
72.9,64.32,2.81
73,64.28,2.81
73.1,64.25,2.81
73.2,64.21,2.81
73.3,64.18,2.8
73.4,64.14,2.8
73.5,64.11,2.8
73.6,64.07,2.8
73.7,64.04,2.8
73.8,64.01,2.8
73.9,63.97,2.8
74,63.94,2.79
74.1,63.9,2.79
74.2,63.87,2.79
74.3,63.83,2.79
74.4,63.8,2.79
74.5,63.76,2.79
74.6,63.73,2.79
74.7,63.7,2.78
74.8,63.66,2.78
74.9,63.63,2.78
75,63.6,2.81
75.1,63.56,2.81
75.2,63.53,2.81
75.3,63.49,2.8
75.4,63.46,2.8
75.5,63.43,2.8
75.6,63.39,2.8
75.7,63.36,2.8
75.8,63.33,2.8
75.9,63.29,2.79
76,63.26,2.79
76.1,63.23,2.79
76.2,63.19,2.79
76.3,63.16,2.79
76.4,63.13,2.79
76.5,63.09,2.79
76.6,63.06,2.78
76.7,63.03,2.78
76.8,63,2.78
76.9,62.96,2.78
77,62.93,2.78
77.1,62.9,2.78
77.2,62.86,2.78
77.3,62.83,2.77
77.4,62.8,2.77
77.5,62.77,2.77
77.6,62.73,2.77
77.7,62.7,2.77
77.8,62.67,2.77
77.9,62.64,2.77
78,62.61,2.76
78.1,62.57,2.76
78.2,62.54,2.76
78.3,62.51,2.76
78.4,62.48,2.76
78.5,62.45,2.76
78.6,62.41,2.76
78.7,62.38,2.75
78.8,62.35,2.75
78.9,62.32,2.75
79,62.29,2.75
79.1,62.26,2.75
79.2,62.22,2.75
79.3,62.19,2.75
79.4,62.16,2.74
79.5,62.13,2.74
79.6,62.1,2.74
79.7,62.07,2.74
79.8,62.04,2.74
79.9,62.01,2.74
80,61.97,2.77
80.1,61.94,2.77
80.2,61.91,2.77
80.3,61.88,2.77
80.4,61.85,2.77
80.5,61.82,2.77
80.6,61.79,2.77
80.7,61.76,2.76
80.8,61.73,2.76
80.9,61.7,2.76
81,61.67,2.76
81.1,61.64,2.76
81.2,61.61,2.76
81.3,61.58,2.76
81.4,61.54,2.76
81.5,61.51,2.75
81.6,61.48,2.75
81.7,61.45,2.75
81.8,61.42,2.75
81.9,61.39,2.75
82,61.36,2.75
82.1,61.33,2.75
82.2,61.3,2.74
82.3,61.27,2.74
82.4,61.24,2.74
82.5,61.21,2.74
82.6,61.19,2.74
82.7,61.16,2.74
82.8,61.13,2.74
82.9,61.1,2.74
83,61.07,2.73
83.1,61.04,2.73
83.2,61.01,2.73
83.3,60.98,2.73
83.4,60.95,2.73
83.5,60.92,2.73
83.6,60.89,2.73
83.7,60.86,2.72
83.8,60.83,2.72
83.9,60.8,2.72
84,60.77,2.72
84.1,60.75,2.72
84.2,60.72,2.72
84.3,60.69,2.72
84.4,60.66,2.72
84.5,60.63,2.71
84.6,60.6,2.71
84.7,60.57,2.71
84.8,60.54,2.71
84.9,60.52,2.71
85,60.49,2.75
85.1,60.46,2.75
85.2,60.43,2.75
85.3,60.4,2.75
85.4,60.37,2.74
85.5,60.35,2.74
85.6,60.32,2.74
85.7,60.29,2.74
85.8,60.26,2.74
85.9,60.23,2.74
86,60.21,2.74
86.1,60.18,2.74
86.2,60.15,2.73
86.3,60.12,2.73
86.4,60.09,2.73
86.5,60.07,2.73
86.6,60.04,2.73
86.7,60.01,2.73
86.8,59.98,2.73
86.9,59.96,2.73
87,59.93,2.72
87.1,59.9,2.72
87.2,59.87,2.72
87.3,59.85,2.72
87.4,59.82,2.72
87.5,59.79,2.72
87.6,59.77,2.72
87.7,59.74,2.72
87.8,59.71,2.71
87.9,59.68,2.71
88,59.66,2.71
88.1,59.63,2.71
88.2,59.6,2.71
88.3,59.58,2.71
88.4,59.55,2.71
88.5,59.52,2.71
88.6,59.5,2.7
88.7,59.47,2.7
88.8,59.44,2.7
88.9,59.42,2.7
89,59.39,2.7
89.1,59.36,2.7
89.2,59.34,2.7
89.3,59.31,2.7
89.4,59.28,2.69
89.5,59.26,2.69
89.6,59.23,2.69
89.7,59.2,2.69
89.8,59.18,2.69
89.9,59.15,2.69
90,59.13,2.75
90.1,59.1,2.74
90.2,59.07,2.74
90.3,59.05,2.74
90.4,59.02,2.74
90.5,59,2.74
90.6,58.97,2.74
90.7,58.94,2.74
90.8,58.92,2.74
90.9,58.89,2.74
91,58.87,2.73
91.1,58.84,2.73
91.2,58.82,2.73
91.3,58.79,2.73
91.4,58.76,2.73
91.5,58.74,2.73
91.6,58.71,2.73
91.7,58.69,2.73
91.8,58.66,2.72
91.9,58.64,2.72
92,58.61,2.72
92.1,58.59,2.72
92.2,58.56,2.72
92.3,58.54,2.72
92.4,58.51,2.72
92.5,58.49,2.72
92.6,58.46,2.72
92.7,58.44,2.71
92.8,58.41,2.71
92.9,58.39,2.71
93,58.36,2.71
93.1,58.34,2.71
93.2,58.31,2.71
93.3,58.29,2.71
93.4,58.26,2.71
93.5,58.24,2.7
93.6,58.22,2.7
93.7,58.19,2.7
93.8,58.17,2.7
93.9,58.14,2.7
94,58.12,2.7
94.1,58.09,2.7
94.2,58.07,2.7
94.3,58.05,2.7
94.4,58.02,2.69
94.5,58,2.69
94.6,57.97,2.69
94.7,57.95,2.69
94.8,57.93,2.69
94.9,57.9,2.69
95,57.88,2.76
95.1,57.85,2.76
95.2,57.83,2.76
95.3,57.81,2.76
95.4,57.78,2.76
95.5,57.76,2.76
95.6,57.74,2.75
95.7,57.71,2.75
95.8,57.69,2.75
95.9,57.67,2.75
96,57.64,2.75
96.1,57.62,2.75
96.2,57.6,2.75
96.3,57.57,2.75
96.4,57.55,2.75
96.5,57.53,2.74
96.6,57.5,2.74
96.7,57.48,2.74
96.8,57.46,2.74
96.9,57.43,2.74
97,57.41,2.74
97.1,57.39,2.74
97.2,57.37,2.74
97.3,57.34,2.74
97.4,57.32,2.73
97.5,57.3,2.73
97.6,57.27,2.73
97.7,57.25,2.73
97.8,57.23,2.73
97.9,57.21,2.73
98,57.18,2.73
98.1,57.16,2.73
98.2,57.14,2.73
98.3,57.12,2.72
98.4,57.09,2.72
98.5,57.07,2.72
98.6,57.05,2.72
98.7,57.03,2.72
98.8,57,2.72
98.9,56.98,2.72
99,56.96,2.72
99.1,56.94,2.72
99.2,56.91,2.72
99.3,56.89,2.71
99.4,56.87,2.71
99.5,56.85,2.71
99.6,56.82,2.71
99.7,56.8,2.71
99.8,56.78,2.71
99.9,56.76,2.71
100,56.73,2.8
90.3,2.47,0.11
90.4,2.46,0.11
90.5,2.46,0.11
90.6,2.46,0.11
90.7,2.45,0.11
90.8,2.45,0.11
90.9,2.45,0.11
91,2.45,0.11
91.1,2.44,0.11
91.2,2.44,0.11
91.3,2.44,0.11
91.4,2.43,0.11
91.5,2.43,0.11
91.6,2.43,0.11
91.7,2.42,0.11
91.8,2.42,0.11
91.9,2.42,0.11
92,2.42,0.11
92.1,2.41,0.11
92.2,2.41,0.11
92.3,2.41,0.11
92.4,2.4,0.1
92.5,2.4,0.1
92.6,2.4,0.1
92.7,2.4,0.1
92.8,2.39,0.1
92.9,2.39,0.1
93,2.39,0.1
93.1,2.39,0.1
93.2,2.38,0.1
93.3,2.38,0.1
93.4,2.38,0.1
93.5,2.37,0.1
93.6,2.37,0.1
93.7,2.37,0.1
93.8,2.37,0.1
93.9,2.36,0.1
94,2.36,0.1
94.1,2.36,0.1
94.2,2.35,0.1
94.3,2.35,0.1
94.4,2.35,0.1
94.5,2.35,0.1
94.6,2.34,0.1
94.7,2.34,0.1
94.8,2.34,0.1
94.9,2.34,0.1
95,2.33,0.1
95.1,2.33,0.1
95.2,2.33,0.1
95.3,2.32,0.1
95.4,2.32,0.1
95.5,2.32,0.1
95.6,2.32,0.1
95.7,2.31,0.1
95.8,2.31,0.1
95.9,2.31,0.1
96,2.31,0.1
96.1,2.3,0.1
96.2,2.3,0.1
96.3,2.3,0.1
96.4,2.3,0.1
96.5,2.29,0.1
96.6,2.29,0.1
96.7,2.29,0.1
96.8,2.29,0.1
96.9,2.28,0.1
97,2.28,0.1
97.1,2.28,0.1
97.2,2.27,0.1
97.3,2.27,0.1
97.4,2.27,0.1
97.5,2.27,0.1
97.6,2.26,0.1
97.7,2.26,0.1
97.8,2.26,0.1
97.9,2.26,0.1
98,2.25,0.1
98.1,2.25,0.1
98.2,2.25,0.1
98.3,2.25,0.1
98.4,2.24,0.1
98.5,2.24,0.1
98.6,2.24,0.1
98.7,2.24,0.1
98.8,2.23,0.1
98.9,2.23,0.1
99,2.23,0.1
99.1,2.23,0.1
99.2,2.22,0.1
99.3,2.22,0.1
99.4,2.22,0.1
99.5,2.21,0.1
99.6,2.21,0.1
99.7,2.21,0.1
99.8,2.21,0.1
99.9,2.2,0.1
100,2.2,0.1
