energy,data,uncert
2.2,0.16,0.01
2.3,0.71,0.04
2.4,1.3,0.08
2.5,1.99,0.12
2.6,2.8,0.17
2.7,3.76,0.22
2.8,4.87,0.29
2.9,6.12,0.36
3,7.52,0.45
3.1,9.07,0.54
3.2,10.77,0.64
3.3,12.64,0.75
3.4,14.65,0.87
3.5,16.83,1
3.6,19.17,1.14
3.7,21.68,1.29
3.8,24.35,1.44
3.9,27.19,1.61
4,30.2,1.79
4.1,33.39,1.98
4.2,36.74,2.18
4.3,40.27,2.39
4.4,43.97,2.61
4.5,47.84,2.84
4.6,51.88,3.08
4.7,56.08,3.33
4.8,60.45,3.59
4.9,64.99,3.85
5,69.69,3.69
5.1,74.55,3.95
5.2,79.52,4.22
5.3,84.55,4.48
5.4,89.61,4.75
5.5,94.62,5.02
5.6,99.55,5.28
5.7,104.35,5.53
5.8,108.96,5.78
5.9,113.34,6.01
6,117.44,6.23
6.1,121.22,6.43
6.2,124.69,6.61
6.3,127.9,6.78
6.4,130.86,6.94
6.5,133.61,7.08
6.6,136.17,7.22
6.7,138.59,7.35
6.8,140.88,7.47
6.9,143.07,7.59
7,145.21,6.96
7.1,147.3,7.06
7.2,149.38,7.16
7.3,151.45,7.26
7.4,153.53,7.36
7.5,155.63,7.46
7.6,157.77,7.56
7.7,159.95,7.67
7.8,162.19,7.77
7.9,164.5,7.88
8,166.9,8
8.1,169.4,8.12
8.2,171.99,8.24
8.3,174.67,8.37
8.4,177.41,8.5
8.5,180.22,8.64
8.6,183.08,8.77
8.7,185.98,8.91
8.8,188.92,9.05
8.9,191.89,9.2
9,194.87,8.03
9.1,197.85,8.15
9.2,200.81,8.27
9.3,203.74,8.4
9.4,206.6,8.51
9.5,209.37,8.63
9.6,212.03,8.74
9.7,214.55,8.84
9.8,216.92,8.94
9.9,219.1,9.03
10,221.08,9.11
10.1,222.83,9.18
10.2,224.34,9.24
10.3,225.59,9.3
10.4,226.58,9.34
10.5,227.3,9.37
10.6,227.72,9.38
10.7,227.84,9.39
10.8,227.65,9.38
10.9,227.14,9.36
11,226.29,9.28
11.1,225.09,9.23
11.2,223.56,9.17
11.3,221.72,9.1
11.4,219.58,9.01
11.5,217.16,8.91
11.6,214.47,8.8
11.7,211.54,8.68
11.8,208.38,8.55
11.9,205.01,8.41
12,201.45,8.26
12.1,197.7,8.11
12.2,193.81,7.95
12.3,189.77,7.78
12.4,185.62,7.61
12.5,181.37,7.44
12.6,177.05,7.26
12.7,172.68,7.08
12.8,168.27,6.9
12.9,163.86,6.72
13,159.45,6.64
13.1,155.06,6.46
13.2,150.72,6.28
13.3,146.41,6.1
13.4,142.16,5.92
13.5,137.96,5.75
13.6,133.83,5.57
13.7,129.77,5.4
13.8,125.78,5.24
13.9,121.88,5.08
14,118.07,4.92
14.1,114.35,4.76
14.2,110.73,4.61
14.3,107.21,4.47
14.4,103.79,4.32
14.5,100.46,4.18
14.6,97.23,4.05
14.7,94.09,3.92
14.8,91.05,3.79
14.9,88.1,3.67
15,85.24,3.56
15.1,82.48,3.44
15.2,79.81,3.33
15.3,77.23,3.23
15.4,74.73,3.12
15.5,72.32,3.02
15.6,69.99,2.92
15.7,67.75,2.83
15.8,65.58,2.74
15.9,63.48,2.65
16,61.46,2.57
16.1,59.52,2.49
16.2,57.64,2.41
16.3,55.83,2.33
16.4,54.09,2.26
16.5,52.41,2.19
16.6,50.79,2.12
16.7,49.23,2.06
16.8,47.73,1.99
16.9,46.28,1.93
17,44.89,1.87
17.1,43.55,1.82
17.2,42.26,1.76
17.3,41.02,1.71
17.4,39.82,1.66
17.5,38.67,1.61
17.6,37.57,1.57
17.7,36.5,1.52
17.8,35.48,1.48
17.9,34.5,1.44
18,33.55,1.4
18.1,32.64,1.36
18.2,31.76,1.32
18.3,30.92,1.29
18.4,30.11,1.26
18.5,29.33,1.22
18.6,28.58,1.19
18.7,27.86,1.16
18.8,27.17,1.13
18.9,26.51,1.11
19,25.87,1.09
19.1,25.25,1.07
19.2,24.66,1.04
19.3,24.09,1.02
19.4,23.55,1
19.5,23.02,0.97
19.6,22.52,0.95
19.7,22.03,0.93
19.8,21.56,0.91
19.9,21.11,0.89
20,20.68,0.87
20.1,20.27,0.86
20.2,19.87,0.84
20.3,19.48,0.82
20.4,19.11,0.81
20.5,18.76,0.79
20.6,18.42,0.78
20.7,18.09,0.76
20.8,17.77,0.75
20.9,17.47,0.74
21,17.17,0.73
21.1,16.89,0.71
21.2,16.62,0.7
21.3,16.36,0.69
21.4,16.11,0.68
21.5,15.86,0.67
21.6,15.63,0.66
21.7,15.4,0.65
21.8,15.19,0.64
21.9,14.98,0.63
22,14.78,0.63
22.1,14.58,0.62
22.2,14.39,0.61
22.3,14.21,0.6
22.4,14.04,0.6
22.5,13.87,0.59
22.6,13.7,0.58
22.7,13.55,0.58
22.8,13.39,0.57
22.9,13.25,0.56
23,13.1,0.56
23.1,12.96,0.55
23.2,12.83,0.55
23.3,12.7,0.54
23.4,12.58,0.54
23.5,12.46,0.53
23.6,12.34,0.52
23.7,12.22,0.52
23.8,12.11,0.52
23.9,12.01,0.51
24,11.9,0.51
24.1,11.8,0.5
24.2,11.7,0.5
24.3,11.61,0.49
24.4,11.52,0.49
24.5,11.43,0.49
24.6,11.34,0.48
24.7,11.25,0.48
24.8,11.17,0.48
24.9,11.09,0.47
25,11.01,0.47
25.1,10.93,0.47
25.2,10.86,0.47
25.3,10.79,0.46
25.4,10.72,0.46
25.5,10.65,0.46
25.6,10.58,0.45
25.7,10.51,0.45
25.8,10.45,0.45
25.9,10.38,0.45
26,10.32,0.44
26.1,10.26,0.44
26.2,10.2,0.44
26.3,10.14,0.44
26.4,10.09,0.43
26.5,10.03,0.43
26.6,9.98,0.43
26.7,9.92,0.43
26.8,9.87,0.42
26.9,9.82,0.42
27,9.77,0.42
27.1,9.72,0.42
27.2,9.67,0.42
27.3,9.62,0.41
27.4,9.58,0.41
27.5,9.53,0.41
27.6,9.48,0.41
27.7,9.44,0.41
27.8,9.39,0.4
27.9,9.35,0.4
28,9.31,0.4
28.1,9.26,0.4
28.2,9.22,0.4
28.3,9.18,0.39
28.4,9.14,0.39
28.5,9.1,0.39
28.6,9.06,0.39
28.7,9.02,0.39
28.8,8.99,0.39
28.9,8.95,0.38
29,8.91,0.38
29.1,8.87,0.38
29.2,8.84,0.38
29.3,8.8,0.38
29.4,8.76,0.38
29.5,8.73,0.37
29.6,8.69,0.37
29.7,8.66,0.37
29.8,8.63,0.37
29.9,8.59,0.37
30,8.56,0.37
30.1,8.53,0.37
30.2,8.49,0.36
30.3,8.46,0.36
30.4,8.43,0.36
30.5,8.4,0.36
30.6,8.37,0.36
30.7,8.33,0.36
30.8,8.3,0.36
30.9,8.27,0.36
31,8.24,0.35
31.1,8.21,0.35
31.2,8.18,0.35
31.3,8.15,0.35
31.4,8.12,0.35
31.5,8.09,0.35
31.6,8.07,0.35
31.7,8.04,0.35
31.8,8.01,0.34
31.9,7.98,0.34
32,7.95,0.34
32.1,7.92,0.34
32.2,7.9,0.34
32.3,7.87,0.34
32.4,7.84,0.34
32.5,7.82,0.34
32.6,7.79,0.33
32.7,7.76,0.33
32.8,7.74,0.33
32.9,7.71,0.33
33,7.68,0.33
33.1,7.66,0.33
33.2,7.63,0.33
33.3,7.61,0.33
33.4,7.58,0.33
33.5,7.56,0.32
33.6,7.53,0.32
33.7,7.51,0.32
33.8,7.48,0.32
33.9,7.46,0.32
34,7.43,0.32
34.1,7.41,0.32
34.2,7.39,0.32
34.3,7.36,0.32
34.4,7.34,0.32
34.5,7.32,0.31
34.6,7.29,0.31
34.7,7.27,0.31
34.8,7.25,0.31
34.9,7.22,0.31
35,7.2,0.31
35.1,7.18,0.31
35.2,7.15,0.31
35.3,7.13,0.31
35.4,7.11,0.31
35.5,7.09,0.31
35.6,7.07,0.3
35.7,7.04,0.3
35.8,7.02,0.3
35.9,7,0.3
36,6.98,0.3
36.1,6.96,0.3
36.2,6.94,0.3
36.3,6.92,0.3
36.4,6.89,0.3
36.5,6.87,0.3
36.6,6.85,0.29
36.7,6.83,0.29
36.8,6.81,0.29
36.9,6.79,0.29
37,6.77,0.29
37.1,6.75,0.29
37.2,6.73,0.29
37.3,6.71,0.29
37.4,6.69,0.29
37.5,6.67,0.29
37.6,6.65,0.29
37.7,6.63,0.29
37.8,6.61,0.28
37.9,6.59,0.28
38,6.57,0.28
38.1,6.55,0.28
38.2,6.53,0.28
38.3,6.52,0.28
38.4,6.5,0.28
38.5,6.48,0.28
38.6,6.46,0.28
38.7,6.44,0.28
38.8,6.42,0.28
38.9,6.4,0.28
39,6.39,0.27
39.1,6.37,0.27
39.2,6.35,0.27
39.3,6.33,0.27
39.4,6.31,0.27
39.5,6.3,0.27
39.6,6.28,0.27
39.7,6.26,0.27
39.8,6.24,0.27
39.9,6.22,0.27
40,6.21,0.27
40.1,6.19,0.27
40.2,6.17,0.27
40.3,6.16,0.27
40.4,6.14,0.27
40.5,6.12,0.26
40.6,6.1,0.26
40.7,6.09,0.26
40.8,6.07,0.26
40.9,6.05,0.26
41,6.04,0.26
41.1,6.02,0.26
41.2,6,0.26
41.3,5.99,0.26
41.4,5.97,0.26
41.5,5.96,0.26
41.6,5.94,0.26
41.7,5.92,0.26
41.8,5.91,0.26
41.9,5.89,0.25
42,5.88,0.25
42.1,5.86,0.25
42.2,5.85,0.25
42.3,5.83,0.25
42.4,5.81,0.25
42.5,5.8,0.25
42.6,5.78,0.25
42.7,5.77,0.25
42.8,5.75,0.25
42.9,5.74,0.25
43,5.72,0.25
43.1,5.71,0.25
43.2,5.69,0.25
43.3,5.68,0.25
43.4,5.66,0.24
43.5,5.65,0.24
43.6,5.63,0.24
43.7,5.62,0.24
43.8,5.6,0.24
43.9,5.59,0.24
44,5.58,0.24
44.1,5.56,0.24
44.2,5.55,0.24
44.3,5.53,0.24
44.4,5.52,0.24
44.5,5.5,0.24
44.6,5.49,0.24
44.7,5.48,0.24
44.8,5.46,0.24
44.9,5.45,0.24
45,5.44,0.23
45.1,5.42,0.23
45.2,5.41,0.23
45.3,5.39,0.23
45.4,5.38,0.23
45.5,5.37,0.23
45.6,5.35,0.23
45.7,5.34,0.23
45.8,5.33,0.23
45.9,5.31,0.23
46,5.3,0.23
46.1,5.29,0.23
46.2,5.28,0.23
46.3,5.26,0.23
46.4,5.25,0.23
46.5,5.24,0.23
46.6,5.22,0.23
46.7,5.21,0.23
46.8,5.2,0.22
46.9,5.19,0.22
47,5.17,0.22
47.1,5.16,0.22
47.2,5.15,0.22
47.3,5.14,0.22
47.4,5.12,0.22
47.5,5.11,0.22
47.6,5.1,0.22
47.7,5.09,0.22
47.8,5.08,0.22
47.9,5.06,0.22
48,5.05,0.22
48.1,5.04,0.22
48.2,5.03,0.22
48.3,5.02,0.22
48.4,5,0.22
48.5,4.99,0.22
48.6,4.98,0.22
48.7,4.97,0.21
48.8,4.96,0.21
48.9,4.95,0.21
49,4.93,0.21
49.1,4.92,0.21
49.2,4.91,0.21
49.3,4.9,0.21
49.4,4.89,0.21
49.5,4.88,0.21
49.6,4.87,0.21
49.7,4.85,0.21
49.8,4.84,0.21
49.9,4.83,0.21
50,4.82,0.21
50.1,4.81,0.21
50.2,4.8,0.21
50.3,4.79,0.21
50.4,4.78,0.21
50.5,4.77,0.21
50.6,4.76,0.21
50.7,4.75,0.21
50.8,4.73,0.21
50.9,4.72,0.2
51,4.71,0.2
51.1,4.7,0.2
51.2,4.69,0.2
51.3,4.68,0.2
51.4,4.67,0.2
51.5,4.66,0.2
51.6,4.65,0.2
51.7,4.64,0.2
51.8,4.63,0.2
51.9,4.62,0.2
52,4.61,0.2
52.1,4.6,0.2
52.2,4.59,0.2
52.3,4.58,0.2
52.4,4.57,0.2
52.5,4.56,0.2
52.6,4.55,0.2
52.7,4.54,0.2
52.8,4.53,0.2
52.9,4.52,0.2
53,4.51,0.2
53.1,4.5,0.19
53.2,4.49,0.19
53.3,4.48,0.19
53.4,4.47,0.19
53.5,4.46,0.19
53.6,4.45,0.19
53.7,4.44,0.19
53.8,4.43,0.19
53.9,4.42,0.19
54,4.42,0.19
54.1,4.41,0.19
54.2,4.4,0.19
54.3,4.39,0.19
54.4,4.38,0.19
54.5,4.37,0.19
54.6,4.36,0.19
54.7,4.35,0.19
54.8,4.34,0.19
54.9,4.33,0.19
55,4.32,0.19
55.1,4.31,0.19
55.2,4.31,0.19
55.3,4.3,0.19
55.4,4.29,0.19
55.5,4.28,0.19
55.6,4.27,0.18
55.7,4.26,0.18
55.8,4.25,0.18
55.9,4.24,0.18
56,4.24,0.18
56.1,4.23,0.18
56.2,4.22,0.18
56.3,4.21,0.18
56.4,4.2,0.18
56.5,4.19,0.18
56.6,4.18,0.18
56.7,4.18,0.18
56.8,4.17,0.18
56.9,4.16,0.18
57,4.15,0.18
57.1,4.14,0.18
57.2,4.13,0.18
57.3,4.13,0.18
57.4,4.12,0.18
57.5,4.11,0.18
57.6,4.1,0.18
57.7,4.09,0.18
57.8,4.09,0.18
57.9,4.08,0.18
58,4.07,0.18
58.1,4.06,0.18
58.2,4.05,0.18
58.3,4.05,0.18
58.4,4.04,0.17
58.5,4.03,0.17
58.6,4.02,0.17
58.7,4.01,0.17
58.8,4.01,0.17
58.9,4,0.17
59,3.99,0.17
59.1,3.98,0.17
59.2,3.97,0.17
59.3,3.97,0.17
59.4,3.96,0.17
59.5,3.95,0.17
59.6,3.94,0.17
59.7,3.94,0.17
59.8,3.93,0.17
59.9,3.92,0.17
60,3.91,0.17
60.1,3.91,0.17
60.2,3.9,0.17
60.3,3.89,0.17
60.4,3.88,0.17
60.5,3.88,0.17
60.6,3.87,0.17
60.7,3.86,0.17
60.8,3.86,0.17
60.9,3.85,0.17
61,3.84,0.17
61.1,3.83,0.17
61.2,3.83,0.17
61.3,3.82,0.17
61.4,3.81,0.17
61.5,3.81,0.17
61.6,3.8,0.16
61.7,3.79,0.16
61.8,3.78,0.16
61.9,3.78,0.16
62,3.77,0.16
62.1,3.76,0.16
62.2,3.76,0.16
62.3,3.75,0.16
62.4,3.74,0.16
62.5,3.74,0.16
62.6,3.73,0.16
62.7,3.72,0.16
62.8,3.72,0.16
62.9,3.71,0.16
63,3.7,0.16
63.1,3.7,0.16
63.2,3.69,0.16
63.3,3.68,0.16
63.4,3.68,0.16
63.5,3.67,0.16
63.6,3.66,0.16
63.7,3.66,0.16
63.8,3.65,0.16
63.9,3.64,0.16
64,3.64,0.16
64.1,3.63,0.16
64.2,3.62,0.16
64.3,3.62,0.16
64.4,3.61,0.16
64.5,3.6,0.16
64.6,3.6,0.16
64.7,3.59,0.16
64.8,3.59,0.16
64.9,3.58,0.16
65,3.57,0.16
65.1,3.57,0.15
65.2,3.56,0.15
65.3,3.55,0.15
65.4,3.55,0.15
65.5,3.54,0.15
65.6,3.54,0.15
65.7,3.53,0.15
65.8,3.52,0.15
65.9,3.52,0.15
66,3.51,0.15
66.1,3.51,0.15
66.2,3.5,0.15
66.3,3.49,0.15
66.4,3.49,0.15
66.5,3.48,0.15
66.6,3.48,0.15
66.7,3.47,0.15
66.8,3.46,0.15
66.9,3.46,0.15
67,3.45,0.15
67.1,3.45,0.15
67.2,3.44,0.15
67.3,3.43,0.15
67.4,3.43,0.15
67.5,3.42,0.15
67.6,3.42,0.15
67.7,3.41,0.15
67.8,3.41,0.15
67.9,3.4,0.15
68,3.39,0.15
68.1,3.39,0.15
68.2,3.38,0.15
68.3,3.38,0.15
68.4,3.37,0.15
68.5,3.37,0.15
68.6,3.36,0.15
68.7,3.36,0.15
68.8,3.35,0.15
68.9,3.34,0.15
69,3.34,0.14
69.1,3.33,0.14
69.2,3.33,0.14
69.3,3.32,0.14
69.4,3.32,0.14
69.5,3.31,0.14
69.6,3.31,0.14
69.7,3.3,0.14
69.8,3.3,0.14
69.9,3.29,0.14
70,3.28,0.14
70.1,3.28,0.14
70.2,3.27,0.14
70.3,3.27,0.14
70.4,3.26,0.14
70.5,3.26,0.14
70.6,3.25,0.14
70.7,3.25,0.14
70.8,3.24,0.14
70.9,3.24,0.14
71,3.23,0.14
71.1,3.23,0.14
71.2,3.22,0.14
71.3,3.22,0.14
71.4,3.21,0.14
71.5,3.21,0.14
71.6,3.2,0.14
71.7,3.2,0.14
71.8,3.19,0.14
71.9,3.19,0.14
72,3.18,0.14
72.1,3.18,0.14
72.2,3.17,0.14
72.3,3.17,0.14
72.4,3.16,0.14
72.5,3.16,0.14
72.6,3.15,0.14
72.7,3.15,0.14
72.8,3.14,0.14
72.9,3.14,0.14
73,3.13,0.14
73.1,3.13,0.14
73.2,3.12,0.14
73.3,3.12,0.14
73.4,3.11,0.14
73.5,3.11,0.13
73.6,3.1,0.13
73.7,3.1,0.13
73.8,3.09,0.13
73.9,3.09,0.13
74,3.08,0.13
74.1,3.08,0.13
74.2,3.07,0.13
74.3,3.07,0.13
74.4,3.07,0.13
74.5,3.06,0.13
74.6,3.06,0.13
74.7,3.05,0.13
74.8,3.05,0.13
74.9,3.04,0.13
75,3.04,0.13
75.1,3.03,0.13
75.2,3.03,0.13
75.3,3.02,0.13
75.4,3.02,0.13
75.5,3.01,0.13
75.6,3.01,0.13
75.7,3.01,0.13
75.8,3,0.13
75.9,3,0.13
76,2.99,0.13
76.1,2.99,0.13
76.2,2.98,0.13
76.3,2.98,0.13
76.4,2.97,0.13
76.5,2.97,0.13
76.6,2.97,0.13
76.7,2.96,0.13
76.8,2.96,0.13
76.9,2.95,0.13
77,2.95,0.13
77.1,2.94,0.13
77.2,2.94,0.13
77.3,2.94,0.13
77.4,2.93,0.13
77.5,2.93,0.13
77.6,2.92,0.13
77.7,2.92,0.13
77.8,2.91,0.13
77.9,2.91,0.13
78,2.91,0.13
78.1,2.9,0.13
78.2,2.9,0.13
78.3,2.89,0.13
78.4,2.89,0.13
78.5,2.89,0.13
78.6,2.88,0.13
78.7,2.88,0.12
78.8,2.87,0.12
78.9,2.87,0.12
79,2.86,0.12
79.1,2.86,0.12
79.2,2.86,0.12
79.3,2.85,0.12
79.4,2.85,0.12
79.5,2.84,0.12
79.6,2.84,0.12
79.7,2.84,0.12
79.8,2.83,0.12
79.9,2.83,0.12
80,2.82,0.12
80.1,2.82,0.12
80.2,2.82,0.12
80.3,2.81,0.12
80.4,2.81,0.12
80.5,2.8,0.12
80.6,2.8,0.12
80.7,2.8,0.12
80.8,2.79,0.12
80.9,2.79,0.12
81,2.79,0.12
81.1,2.78,0.12
81.2,2.78,0.12
81.3,2.77,0.12
81.4,2.77,0.12
81.5,2.77,0.12
81.6,2.76,0.12
81.7,2.76,0.12
81.8,2.75,0.12
81.9,2.75,0.12
82,2.75,0.12
82.1,2.74,0.12
82.2,2.74,0.12
82.3,2.74,0.12
82.4,2.73,0.12
82.5,2.73,0.12
82.6,2.72,0.12
82.7,2.72,0.12
82.8,2.72,0.12
82.9,2.71,0.12
83,2.71,0.12
83.1,2.71,0.12
83.2,2.7,0.12
83.3,2.7,0.12
83.4,2.69,0.12
83.5,2.69,0.12
83.6,2.69,0.12
83.7,2.68,0.12
83.8,2.68,0.12
83.9,2.68,0.12
84,2.67,0.12
84.1,2.67,0.12
84.2,2.67,0.12
84.3,2.66,0.12
84.4,2.66,0.12
84.5,2.66,0.12
84.6,2.65,0.12
84.7,2.65,0.12
84.8,2.64,0.12
84.9,2.64,0.12
85,2.64,0.12
85.1,2.63,0.11
85.2,2.63,0.11
85.3,2.63,0.11
85.4,2.62,0.11
85.5,2.62,0.11
85.6,2.62,0.11
85.7,2.61,0.11
85.8,2.61,0.11
85.9,2.61,0.11
86,2.6,0.11
86.1,2.6,0.11
86.2,2.6,0.11
86.3,2.59,0.11
86.4,2.59,0.11
86.5,2.59,0.11
86.6,2.58,0.11
86.7,2.58,0.11
86.8,2.58,0.11
86.9,2.57,0.11
87,2.57,0.11
87.1,2.57,0.11
87.2,2.56,0.11
87.3,2.56,0.11
87.4,2.56,0.11
87.5,2.55,0.11
87.6,2.55,0.11
87.7,2.55,0.11
87.8,2.54,0.11
87.9,2.54,0.11
88,2.54,0.11
88.1,2.53,0.11
88.2,2.53,0.11
88.3,2.53,0.11
88.4,2.52,0.11
88.5,2.52,0.11
88.6,2.52,0.11
88.7,2.52,0.11
88.8,2.51,0.11
88.9,2.51,0.11
89,2.51,0.11
89.1,2.5,0.11
89.2,2.5,0.11
89.3,2.5,0.11
89.4,2.49,0.11
89.5,2.49,0.11
89.6,2.49,0.11
89.7,2.48,0.11
89.8,2.48,0.11
89.9,2.48,0.11
90,2.48,0.11
90.1,2.47,0.11
90.2,2.47,0.11
90.3,2.47,0.11
90.4,2.46,0.11
90.5,2.46,0.11
90.6,2.46,0.11
90.7,2.45,0.11
90.8,2.45,0.11
90.9,2.45,0.11
91,2.45,0.11
91.1,2.44,0.11
91.2,2.44,0.11
91.3,2.44,0.11
91.4,2.43,0.11
91.5,2.43,0.11
91.6,2.43,0.11
91.7,2.42,0.11
91.8,2.42,0.11
91.9,2.42,0.11
92,2.42,0.11
92.1,2.41,0.11
92.2,2.41,0.11
92.3,2.41,0.11
92.4,2.4,0.1
92.5,2.4,0.1
92.6,2.4,0.1
92.7,2.4,0.1
92.8,2.39,0.1
92.9,2.39,0.1
93,2.39,0.1
93.1,2.39,0.1
93.2,2.38,0.1
93.3,2.38,0.1
93.4,2.38,0.1
93.5,2.37,0.1
93.6,2.37,0.1
93.7,2.37,0.1
93.8,2.37,0.1
93.9,2.36,0.1
94,2.36,0.1
94.1,2.36,0.1
94.2,2.35,0.1
94.3,2.35,0.1
94.4,2.35,0.1
94.5,2.35,0.1
94.6,2.34,0.1
94.7,2.34,0.1
94.8,2.34,0.1
94.9,2.34,0.1
95,2.33,0.1
95.1,2.33,0.1
95.2,2.33,0.1
95.3,2.32,0.1
95.4,2.32,0.1
95.5,2.32,0.1
95.6,2.32,0.1
95.7,2.31,0.1
95.8,2.31,0.1
95.9,2.31,0.1
96,2.31,0.1
96.1,2.3,0.1
96.2,2.3,0.1
96.3,2.3,0.1
96.4,2.3,0.1
96.5,2.29,0.1
96.6,2.29,0.1
96.7,2.29,0.1
96.8,2.29,0.1
96.9,2.28,0.1
97,2.28,0.1
97.1,2.28,0.1
97.2,2.27,0.1
97.3,2.27,0.1
97.4,2.27,0.1
97.5,2.27,0.1
97.6,2.26,0.1
97.7,2.26,0.1
97.8,2.26,0.1
97.9,2.26,0.1
98,2.25,0.1
98.1,2.25,0.1
98.2,2.25,0.1
98.3,2.25,0.1
98.4,2.24,0.1
98.5,2.24,0.1
98.6,2.24,0.1
98.7,2.24,0.1
98.8,2.23,0.1
98.9,2.23,0.1
99,2.23,0.1
99.1,2.23,0.1
99.2,2.22,0.1
99.3,2.22,0.1
99.4,2.22,0.1
99.5,2.21,0.1
99.6,2.21,0.1
99.7,2.21,0.1
99.8,2.21,0.1
99.9,2.2,0.1
100,2.2,0.1
